,current,potential,elapsed_time,applied_potential,current_range,segment
0,2.514933157726773e-06,0.0006134682917036116,0.013333,0.0,0.002,0.0
1,2.2695680854667444e-06,0.00030676196911372244,0.026666,-0.0010000000474974513,0.002,0.0
2,2.208226987931994e-06,5.561913596352497e-08,0.039999,-0.0020000000949949026,0.002,0.0
3,2.0242030132067157e-06,0.00030676196911372244,0.053332,-0.003000000026077032,0.002,0.0
4,1.840179265855113e-06,-0.0003066507342737168,0.066665,-0.004000000189989805,0.002,0.0
5,1.533472982373496e-06,-0.000613357056863606,0.079998,-0.005000000353902578,0.002,0.0
6,1.2881079101134674e-06,-0.0009200634085573256,0.093331,-0.006000000052154064,0.002,0.0
7,1.0427428378534387e-06,-0.0012267697602510452,0.106664,-0.007000000216066837,0.002,0.0
8,6.746952294633957e-07,-0.002146888757124543,0.119997,-0.00800000037997961,0.002,0.0
9,4.29330157203367e-07,-0.002146888757124543,0.13333,-0.009000000543892384,0.002,0.0
10,1.226238026674764e-07,-0.003067007753998041,0.146663,-0.010000000707805157,0.002,0.0
11,-1.8408253765755944e-07,-0.0033737141638994217,0.159996,-0.01100000087171793,0.002,0.0
12,-5.521301318367478e-07,-0.003987126983702183,0.173329,-0.012000000104308128,0.002,0.0
13,-7.974952040967764e-07,-0.005213952157646418,0.186662,-0.013000000268220901,0.002,0.0
14,-1.1042016012652311e-06,-0.005213952157646418,0.199995,-0.014000000432133675,0.002,0.0
15,-1.4109078847468481e-06,-0.005827364977449179,0.213328,-0.015000000596046448,0.002,0.0
16,-1.6562729570068768e-06,-0.006747483741492033,0.226661,-0.01600000075995922,0.002,0.0
17,-1.962979240488494e-06,-0.007360896561294794,0.239994,-0.017000000923871994,0.002,0.0
18,-2.2083443127485225e-06,-0.007974308915436268,0.253327,-0.018000001087784767,0.002,0.0
19,-2.5763920348254032e-06,-0.00920113455504179,0.26666,-0.01900000125169754,0.002,0.0
20,-2.821757107085432e-06,-0.010121253319084644,0.279993,-0.020000001415610313,0.002,0.0
21,-3.1284635042538866e-06,-0.010121253319084644,0.293326,-0.021000001579523087,0.002,0.0
22,-3.3124872516054893e-06,-0.011348078958690166,0.306659,-0.02200000174343586,0.002,0.0
23,-3.619193648773944e-06,-0.01226819772273302,0.319992,-0.023000001907348633,0.002,0.0
24,-3.864558493660297e-06,-0.012881610542535782,0.333325,-0.024000000208616257,0.002,0.0
25,-4.048582468385575e-06,-0.013801729306578636,0.346658,-0.02500000037252903,0.002,0.0
26,-4.2326064431108534e-06,-0.014721849001944065,0.359991,-0.026000000536441803,0.002,0.0
27,-4.539312612905633e-06,-0.015641966834664345,0.373324,-0.027000000700354576,0.002,0.0
28,-4.661995262722485e-06,-0.01656208746135235,0.386657,-0.02800000086426735,0.002,0.0
29,-4.968701432517264e-06,-0.017482206225395203,0.39999,-0.029000001028180122,0.002,0.0
30,-5.091384082334116e-06,-0.018402324989438057,0.413323,-0.030000001192092896,0.002,0.0
31,-5.336748927220469e-06,-0.01962915062904358,0.426656,-0.03100000135600567,0.002,0.0
32,-5.459431577037321e-06,-0.020242562517523766,0.439989,-0.03200000151991844,0.002,0.0
33,-5.6434555517625995e-06,-0.02116268128156662,0.453322,-0.032999999821186066,0.002,0.0
34,-5.888820396648953e-06,-0.022082800045609474,0.466655,-0.03400000184774399,0.002,0.0
35,-5.950161721557379e-06,-0.023309625685214996,0.479988,-0.03500000014901161,0.002,0.0
36,-6.072844371374231e-06,-0.023616332560777664,0.493321,-0.036000002175569534,0.002,0.0
37,-6.195527021191083e-06,-0.02453645132482052,0.506654,-0.03700000047683716,0.002,0.0
38,-6.502233190985862e-06,-0.025456570088863373,0.519987,-0.03800000250339508,0.002,0.0
39,-6.563574515894288e-06,-0.02729680947959423,0.53332,-0.039000000804662704,0.002,0.0
40,-6.68625716571114e-06,-0.027910221368074417,0.546653,-0.04000000283122063,0.002,0.0
41,-6.8089393607806414e-06,-0.02883034013211727,0.559986,-0.04100000113248825,0.002,0.0
42,-6.9316220105974935e-06,-0.029750458896160126,0.573319,-0.04200000315904617,0.002,0.0
43,-7.115645985322772e-06,-0.03036387264728546,0.586652,-0.0430000014603138,0.002,0.0
44,-7.299669505300699e-06,-0.031283989548683167,0.599985,-0.04400000348687172,0.002,0.0
45,-7.361010830209125e-06,-0.03251081705093384,0.613318,-0.04500000178813934,0.002,0.0
46,-7.483693480025977e-06,-0.03373764082789421,0.626651,-0.046000003814697266,0.002,0.0
47,-7.545034804934403e-06,-0.034351054579019547,0.639984,-0.04700000211596489,0.002,0.0
48,-7.667717000003904e-06,-0.03588458523154259,0.653317,-0.04800000041723251,0.002,0.0
49,-7.729058779659681e-06,-0.03649799898266792,0.66665,-0.049000002443790436,0.002,0.0
50,-7.851741429476533e-06,-0.037724822759628296,0.679983,-0.05000000074505806,0.002,0.0
51,-7.913082299637608e-06,-0.03895165026187897,0.693316,-0.05100000277161598,0.002,0.0
52,-8.03576494945446e-06,-0.039258357137441635,0.706649,-0.052000001072883606,0.002,0.0
53,-8.158447599271312e-06,-0.040791887789964676,0.719982,-0.05300000309944153,0.002,0.0
54,-8.219788469432388e-06,-0.04140530154109001,0.733315,-0.05400000140070915,0.002,0.0
55,-8.281130249088164e-06,-0.042632125318050385,0.746648,-0.055000003427267075,0.002,0.0
56,-8.403812898905016e-06,-0.04324553906917572,0.759981,-0.0560000017285347,0.002,0.0
57,-8.465153769066092e-06,-0.04447236284613609,0.773314,-0.05700000375509262,0.002,0.0
58,-8.526494639227167e-06,-0.045699190348386765,0.786647,-0.058000002056360245,0.002,0.0
59,-8.649177289044019e-06,-0.04692601412534714,0.79998,-0.05900000408291817,0.002,0.0
60,-8.649177289044019e-06,-0.04753942787647247,0.813313,-0.06000000238418579,0.002,0.0
61,-8.771859938860871e-06,-0.04845954477787018,0.826646,-0.06100000441074371,0.002,0.0
62,-8.833201718516648e-06,-0.04968637228012085,0.839979,-0.06200000271201134,0.002,0.0
63,-8.894542588677723e-06,-0.050606489181518555,0.853312,-0.06300000101327896,0.002,0.0
64,-8.894542588677723e-06,-0.05091319605708122,0.866645,-0.06400000303983688,0.002,0.0
65,-9.017225238494575e-06,-0.05244672670960426,0.879978,-0.0650000050663948,0.002,0.0
66,-8.955883458838798e-06,-0.05336684733629227,0.893311,-0.06599999964237213,0.002,0.0
67,-9.07856610865565e-06,-0.0539802610874176,0.906644,-0.06700000166893005,0.002,0.0
68,-9.262590538128279e-06,-0.05551379173994064,0.919977,-0.06800000369548798,0.002,0.0
69,-9.262590538128279e-06,-0.05643391236662865,0.93331,-0.0690000057220459,0.002,0.0
70,-9.323931408289354e-06,-0.05766073614358902,0.946643,-0.07000000029802322,0.002,0.0
71,-9.262590538128279e-06,-0.05796744301915169,0.959976,-0.07100000232458115,0.002,0.0
72,-9.385273187945131e-06,-0.05919426679611206,0.973309,-0.07200000435113907,0.002,0.0
73,-9.446614058106206e-06,-0.06042109429836273,0.986642,-0.07300000637769699,0.002,0.0
74,-9.507954928267282e-06,-0.06103450432419777,0.999975,-0.07400000095367432,0.002,0.0
75,-9.507954928267282e-06,-0.06195462495088577,1.013308,-0.07500000298023224,0.002,0.0
76,-9.69197935773991e-06,-0.06348815560340881,1.026641,-0.07600000500679016,0.002,0.0
77,-9.630637578084134e-06,-0.06379486620426178,1.039974,-0.07700000703334808,0.002,0.0
78,-9.69197935773991e-06,-0.06532839685678482,1.053307,-0.07800000160932541,0.002,0.0
79,-9.69197935773991e-06,-0.06686192750930786,1.06664,-0.07900000363588333,0.002,0.0
80,-9.753320227900986e-06,-0.06716863065958023,1.079973,-0.08000000566244125,0.002,0.0
81,-9.753320227900986e-06,-0.06808875501155853,1.093306,-0.08100000023841858,0.002,0.0
82,-9.814662007556763e-06,-0.06931557506322861,1.106639,-0.0820000022649765,0.002,0.0
83,-9.876002877717838e-06,-0.07054240256547928,1.119972,-0.08300000429153442,0.002,0.0
84,-9.99868552753469e-06,-0.07115581631660461,1.133305,-0.08400000631809235,0.002,0.0
85,-9.99868552753469e-06,-0.07238264381885529,1.146638,-0.08500000089406967,0.002,0.0
86,-9.99868552753469e-06,-0.07330276072025299,1.159971,-0.0860000029206276,0.002,0.0
87,-1.0060026397695765e-05,-0.07391617447137833,1.173304,-0.08700000494718552,0.002,0.0
88,-1.0121368177351542e-05,-0.07483629137277603,1.186637,-0.08800000697374344,0.002,0.0
89,-1.0182709047512617e-05,-0.07636982202529907,1.19997,-0.08900000154972076,0.002,0.0
90,-1.0244050827168394e-05,-0.07759664952754974,1.213303,-0.09000000357627869,0.002,0.0
91,-1.0244050827168394e-05,-0.07790335267782211,1.226636,-0.09100000560283661,0.002,0.0
92,-1.0244050827168394e-05,-0.07913018018007278,1.239969,-0.09200000762939453,0.002,0.0
93,-1.0305391697329469e-05,-0.08035700768232346,1.253302,-0.09300000220537186,0.002,0.0
94,-1.0366733476985246e-05,-0.08127712458372116,1.266635,-0.09400000423192978,0.002,0.0
95,-1.0428074347146321e-05,-0.08250395208597183,1.279968,-0.0950000062584877,0.002,0.0
96,-1.0428074347146321e-05,-0.08311736583709717,1.293301,-0.09600000083446503,0.002,0.0
97,-1.0428074347146321e-05,-0.08403748273849487,1.306634,-0.09700000286102295,0.002,0.0
98,-1.0550756996963173e-05,-0.08495759963989258,1.319967,-0.09800000488758087,0.002,0.0
99,-1.0550756996963173e-05,-0.08649113029241562,1.3333,-0.0990000069141388,0.002,0.0
100,-1.0550756996963173e-05,-0.08679784089326859,1.346633,-0.10000000149011612,0.002,0.0
101,-1.0612097867124248e-05,-0.08833137154579163,1.359966,-0.10100000351667404,0.002,0.0
102,-1.0673439646780025e-05,-0.0895581990480423,1.373299,-0.10200000554323196,0.002,0.0
103,-1.0673439646780025e-05,-0.09017160534858704,1.386632,-0.10300000756978989,0.002,0.0
104,-1.07347805169411e-05,-0.09139843285083771,1.399965,-0.10400000214576721,0.002,0.0
105,-1.07347805169411e-05,-0.09170514345169067,1.413298,-0.10500000417232513,0.002,0.0
106,-1.07347805169411e-05,-0.09293196350336075,1.426631,-0.10600000619888306,0.002,0.0
107,-1.0796122296596877e-05,-0.09385208785533905,1.439964,-0.10700000822544098,0.002,0.0
108,-1.0796122296596877e-05,-0.09569232165813446,1.453297,-0.1080000028014183,0.002,0.0
109,-1.0857463166757952e-05,-0.09599903225898743,1.46663,-0.10900000482797623,0.002,0.0
110,-1.0918804036919028e-05,-0.0972258523106575,1.479963,-0.11000000685453415,0.002,0.0
111,-1.104148668673588e-05,-0.0981459766626358,1.493296,-0.11100000888109207,0.002,0.0
112,-1.0918804036919028e-05,-0.09906609356403351,1.506629,-0.1120000034570694,0.002,0.0
113,-1.0980145816574804e-05,-0.09998621046543121,1.519962,-0.11300000548362732,0.002,0.0
114,-1.104148668673588e-05,-0.10151974111795425,1.533295,-0.11400000751018524,0.002,0.0
115,-1.1102828466391657e-05,-0.10213315486907959,1.546628,-0.11500000208616257,0.002,0.0
116,-1.104148668673588e-05,-0.1030532717704773,1.559961,-0.11600000411272049,0.002,0.0
117,-1.1102828466391657e-05,-0.10458680987358093,1.573294,-0.11700000613927841,0.002,0.0
118,-1.1102828466391657e-05,-0.10520021617412567,1.586627,-0.11800000816583633,0.002,0.0
119,-1.1102828466391657e-05,-0.10612034052610397,1.59996,-0.11900000274181366,0.002,0.0
120,-1.1164169336552732e-05,-0.10734716057777405,1.613293,-0.12000000476837158,0.002,0.0
121,-1.1164169336552732e-05,-0.10796057432889938,1.626626,-0.1210000067949295,0.002,0.0
122,-1.1286851986369584e-05,-0.10949410498142242,1.639959,-0.12200000882148743,0.002,0.0
123,-1.134819376602536e-05,-0.1107209324836731,1.653292,-0.12300000339746475,0.002,0.0
124,-1.1286851986369584e-05,-0.11102764308452606,1.666625,-0.12400000542402267,0.002,0.0
125,-1.134819376602536e-05,-0.1125611737370491,1.679958,-0.125,0.002,0.0
126,-1.134819376602536e-05,-0.11317458748817444,1.693291,-0.12600000202655792,0.002,0.0
127,-1.134819376602536e-05,-0.11409470438957214,1.706624,-0.12700000405311584,0.002,0.0
128,-1.1409534636186436e-05,-0.11532153189182281,1.719957,-0.12800000607967377,0.002,0.0
129,-1.1470875506347511e-05,-0.11593493819236755,1.73329,-0.1290000081062317,0.002,0.0
130,-1.1593558156164363e-05,-0.11716176569461823,1.746623,-0.1300000101327896,0.002,0.0
131,-1.165489993582014e-05,-0.1183885931968689,1.759956,-0.13100001215934753,0.002,0.0
132,-1.1593558156164363e-05,-0.11869529634714127,1.773289,-0.13199999928474426,0.002,0.0
133,-1.1593558156164363e-05,-0.11961542069911957,1.786622,-0.13300000131130219,0.002,0.0
134,-1.165489993582014e-05,-0.12084224075078964,1.799955,-0.1340000033378601,0.002,0.0
135,-1.1716240805981215e-05,-0.12206906825304031,1.813288,-0.13500000536441803,0.002,0.0
136,-1.1716240805981215e-05,-0.12360259890556335,1.826621,-0.13600000739097595,0.002,0.0
137,-1.1777582585636992e-05,-0.12390930950641632,1.839954,-0.13700000941753387,0.002,0.0
138,-1.1777582585636992e-05,-0.12482942640781403,1.853287,-0.1380000114440918,0.002,0.0
139,-1.1838923455798067e-05,-0.12636294960975647,1.86662,-0.13900001347064972,0.002,0.0
140,-1.1838923455798067e-05,-0.1269763708114624,1.879953,-0.14000000059604645,0.002,0.0
141,-1.1777582585636992e-05,-0.12820319831371307,1.893286,-0.14100000262260437,0.002,0.0
142,-1.196160610561492e-05,-0.12912331521511078,1.906619,-0.1420000046491623,0.002,0.0
143,-1.196160610561492e-05,-0.13035014271736145,1.919952,-0.14300000667572021,0.002,0.0
144,-1.1777582585636992e-05,-0.1309635490179062,1.933285,-0.14400000870227814,0.002,0.0
145,-1.196160610561492e-05,-0.13219037652015686,1.946618,-0.14500001072883606,0.002,0.0
146,-1.196160610561492e-05,-0.13311049342155457,1.959951,-0.14600001275539398,0.002,0.0
147,-1.196160610561492e-05,-0.13433732092380524,1.973284,-0.1469999998807907,0.002,0.0
148,-1.2084288755431771e-05,-0.13525743782520294,1.986617,-0.14800000190734863,0.002,0.0
149,-1.2022946975775994e-05,-0.13617755472660065,1.99995,-0.14900000393390656,0.002,0.0
150,-1.2145629625592846e-05,-0.13709767162799835,2.013283,-0.15000000596046448,0.002,0.0
151,-1.2145629625592846e-05,-0.13801780343055725,2.026616,-0.1510000079870224,0.002,0.0
152,-1.2084288755431771e-05,-0.138631209731102,2.039949,-0.15200001001358032,0.002,0.0
153,-1.2206971405248623e-05,-0.14016474783420563,2.053282,-0.15300001204013824,0.002,0.0
154,-1.2329654055065475e-05,-0.14077815413475037,2.066615,-0.15400001406669617,0.002,0.0
155,-1.2206971405248623e-05,-0.14200498163700104,2.079948,-0.1550000011920929,0.002,0.0
156,-1.2268312275409698e-05,-0.14292509853839874,2.093281,-0.15600000321865082,0.002,0.0
157,-1.2329654055065475e-05,-0.14415192604064941,2.106614,-0.15700000524520874,0.002,0.0
158,-1.2329654055065475e-05,-0.14537875354290009,2.119947,-0.15800000727176666,0.002,0.0
159,-1.2329654055065475e-05,-0.1462988704442978,2.13328,-0.15900000929832458,0.002,0.0
160,-1.239099492522655e-05,-0.14691227674484253,2.146613,-0.1600000113248825,0.002,0.0
161,-1.239099492522655e-05,-0.14752569794654846,2.159946,-0.16100001335144043,0.002,0.0
162,-1.2329654055065475e-05,-0.1490592211484909,2.173279,-0.16200000047683716,0.002,0.0
163,-1.2452335795387626e-05,-0.14967264235019684,2.186612,-0.16300000250339508,0.002,0.0
164,-1.2513677575043403e-05,-0.1508994698524475,2.199945,-0.164000004529953,0.002,0.0
165,-1.2575018445204478e-05,-0.15151287615299225,2.213278,-0.16500000655651093,0.002,0.0
166,-1.2513677575043403e-05,-0.15335310995578766,2.226611,-0.16600000858306885,0.002,0.0
167,-1.2575018445204478e-05,-0.1539665311574936,2.239944,-0.16700001060962677,0.002,0.0
168,-1.2575018445204478e-05,-0.1548866480588913,2.253277,-0.1680000126361847,0.002,0.0
169,-1.269770109502133e-05,-0.155806764960289,2.26661,-0.16900001466274261,0.002,0.0
170,-1.269770109502133e-05,-0.15703359246253967,2.279943,-0.17000000178813934,0.002,0.0
171,-1.269770109502133e-05,-0.15795370936393738,2.293276,-0.17100000381469727,0.002,0.0
172,-1.2759042874677107e-05,-0.15948724746704102,2.306609,-0.1720000058412552,0.002,0.0
173,-1.2759042874677107e-05,-0.15948724746704102,2.319942,-0.1730000078678131,0.002,0.0
174,-1.2820383744838182e-05,-0.16132748126983643,2.333275,-0.17400000989437103,0.002,0.0
175,-1.2820383744838182e-05,-0.1616341918706894,2.346608,-0.17500001192092896,0.002,0.0
176,-1.2943066394655034e-05,-0.16316771507263184,2.359941,-0.17600001394748688,0.002,0.0
177,-1.2943066394655034e-05,-0.16378113627433777,2.373274,-0.1770000010728836,0.002,0.0
178,-1.2943066394655034e-05,-0.16500794887542725,2.386607,-0.17800000309944153,0.002,0.0
179,-1.2943066394655034e-05,-0.16592808067798615,2.39994,-0.17900000512599945,0.002,0.0
180,-1.3004407264816109e-05,-0.16684819757938385,2.413273,-0.18000000715255737,0.002,0.0
181,-1.3004407264816109e-05,-0.16807502508163452,2.426606,-0.1810000091791153,0.002,0.0
182,-1.3065749044471886e-05,-0.16899514198303223,2.439939,-0.18200001120567322,0.002,0.0
183,-1.3065749044471886e-05,-0.16960854828357697,2.453272,-0.18300001323223114,0.002,0.0
184,-1.3127089914632961e-05,-0.17083537578582764,2.466605,-0.18400001525878906,0.002,0.0
185,-1.3188431694288738e-05,-0.1720622032880783,2.479938,-0.1850000023841858,0.002,0.0
186,-1.3127089914632961e-05,-0.17328903079032898,2.493271,-0.1860000044107437,0.002,0.0
187,-1.3188431694288738e-05,-0.17390243709087372,2.506604,-0.18700000643730164,0.002,0.0
188,-1.3188431694288738e-05,-0.17451585829257965,2.519937,-0.18800000846385956,0.002,0.0
189,-1.3127089914632961e-05,-0.17574267089366913,2.53327,-0.18900001049041748,0.002,0.0
190,-1.3249772564449813e-05,-0.1769694983959198,2.546603,-0.1900000125169754,0.002,0.0
191,-1.331111434410559e-05,-0.17758291959762573,2.559936,-0.19100001454353333,0.002,0.0
192,-1.331111434410559e-05,-0.17911644279956818,2.573269,-0.19200000166893005,0.002,0.0
193,-1.3372455214266665e-05,-0.18003655970096588,2.586602,-0.19300000369548798,0.002,0.0
194,-1.3372455214266665e-05,-0.18126338720321655,2.599935,-0.1940000057220459,0.002,0.0
195,-1.343379608442774e-05,-0.18157009780406952,2.613268,-0.19500000774860382,0.002,0.0
196,-1.3495137864083517e-05,-0.18310363590717316,2.626601,-0.19600000977516174,0.002,0.0
197,-1.3556478734244592e-05,-0.18402375280857086,2.639934,-0.19700001180171967,0.002,0.0
198,-1.3495137864083517e-05,-0.18494386970996857,2.653267,-0.1980000138282776,0.002,0.0
199,-1.361782051390037e-05,-0.18586398661136627,2.6666,-0.1990000158548355,0.002,0.0
200,-1.361782051390037e-05,-0.18709081411361694,2.679933,-0.20000000298023224,0.002,0.0
201,-1.3679161384061445e-05,-0.18801093101501465,2.693266,-0.20100000500679016,0.002,0.0
202,-1.3679161384061445e-05,-0.18923775851726532,2.706599,-0.20200000703334808,0.002,0.0
203,-1.3740503163717221e-05,-0.1895444691181183,2.719932,-0.203000009059906,0.002,0.0
204,-1.3679161384061445e-05,-0.19107799232006073,2.733265,-0.20400001108646393,0.002,0.0
205,-1.3740503163717221e-05,-0.1913847029209137,2.746598,-0.20500001311302185,0.002,0.0
206,-1.3801844033878297e-05,-0.19261153042316437,2.759931,-0.20600001513957977,0.002,0.0
207,-1.3801844033878297e-05,-0.1941450536251068,2.773264,-0.2070000171661377,0.002,0.0
208,-1.3924526683695149e-05,-0.19506517052650452,2.786597,-0.20800000429153442,0.002,0.0
209,-1.3801844033878297e-05,-0.19567859172821045,2.79993,-0.20900000631809235,0.002,0.0
210,-1.3924526683695149e-05,-0.19659870862960815,2.813263,-0.21000000834465027,0.002,0.0
211,-1.3924526683695149e-05,-0.1981322467327118,2.826596,-0.2110000103712082,0.002,0.0
212,-1.3985867553856224e-05,-0.1990523636341095,2.839929,-0.2120000123977661,0.002,0.0
213,-1.3985867553856224e-05,-0.1999724805355072,2.853262,-0.21300001442432404,0.002,0.0
214,-1.4108550203673076e-05,-0.2008925974369049,2.866595,-0.21400001645088196,0.002,0.0
215,-1.4047209333512e-05,-0.2018127143383026,2.879928,-0.2150000035762787,0.002,0.0
216,-1.4108550203673076e-05,-0.20273283123970032,2.893261,-0.2160000056028366,0.002,0.0
217,-1.4169891983328853e-05,-0.203959658741951,2.906594,-0.21700000762939453,0.002,0.0
218,-1.4169891983328853e-05,-0.2057998925447464,2.93326,-0.21900001168251038,0.002,0.0
219,-1.435391550330678e-05,-0.20733343064785004,2.946593,-0.2200000137090683,0.002,0.0
220,-1.4231232853489928e-05,-0.20794683694839478,2.959926,-0.22100001573562622,0.002,0.0
221,-1.4292574633145705e-05,-0.20886696875095367,2.973259,-0.22200001776218414,0.002,0.0
222,-1.4292574633145705e-05,-0.2094803750514984,2.986592,-0.22300000488758087,0.002,0.0
223,-1.435391550330678e-05,-0.21070720255374908,2.999925,-0.2240000069141388,0.002,0.0
224,-1.4476598153123632e-05,-0.21224072575569153,3.013258,-0.22500000894069672,0.002,0.0
225,-1.4476598153123632e-05,-0.21285414695739746,3.026591,-0.22600001096725464,0.002,0.0
226,-1.4476598153123632e-05,-0.21377426385879517,3.039924,-0.22700001299381256,0.002,0.0
