,current,potential,elapsed_time,applied_potential,current_range,segment
0,-8.649177289044019e-06,0.00122688093688339,0.013333,0.0,0.002,0.0
1,-8.587836418882944e-06,0.00122688093688339,0.026666,-0.0010000000474974513,0.002,0.0
2,-8.649177289044019e-06,0.00122688093688339,0.039999,-0.0020000000949949026,0.002,0.0
3,-8.649177289044019e-06,0.00030676196911372244,0.053332,-0.003000000026077032,0.002,0.0
4,-8.526494639227167e-06,0.0009201746433973312,0.066665,-0.004000000189989805,0.002,0.0
5,-8.833201718516648e-06,5.561913596352497e-08,0.079998,-0.005000000353902578,0.002,0.0
6,-8.955883458838798e-06,5.561913596352497e-08,0.093331,-0.006000000052154064,0.002,0.0
7,-9.07856610865565e-06,-0.0009200634085573256,0.106664,-0.007000000216066837,0.002,0.0
8,-9.201248758472502e-06,-0.001533476053737104,0.119997,-0.00800000037997961,0.002,0.0
9,-9.569296707923058e-06,-0.001533476053737104,0.13333,-0.009000000543892384,0.002,0.0
10,-9.753320227900986e-06,-0.002146888757124543,0.146663,-0.010000000707805157,0.002,0.0
11,-9.937343747878913e-06,-0.003067007753998041,0.159996,-0.01100000087171793,0.002,0.0
12,-1.0244050827168394e-05,-0.0036804205738008022,0.173329,-0.012000000104308128,0.002,0.0
13,-1.0612097867124248e-05,-0.0036804205738008022,0.186662,-0.013000000268220901,0.002,0.0
14,-1.0857463166757952e-05,-0.0046005393378436565,0.199995,-0.014000000432133675,0.002,0.0
15,-1.1102828466391657e-05,-0.005827364977449179,0.213328,-0.015000000596046448,0.002,0.0
16,-1.134819376602536e-05,-0.006134071387350559,0.226661,-0.01600000075995922,0.002,0.0
17,-1.1716240805981215e-05,-0.0070541901513934135,0.239994,-0.017000000923871994,0.002,0.0
18,-1.1838923455798067e-05,-0.007360896561294794,0.253327,-0.018000001087784767,0.002,0.0
19,-1.2145629625592846e-05,-0.008281015790998936,0.26666,-0.01900000125169754,0.002,0.0
20,-1.2452335795387626e-05,-0.00920113455504179,0.279993,-0.020000001415610313,0.002,0.0
21,-1.2759042874677107e-05,-0.010121253319084644,0.293326,-0.021000001579523087,0.002,0.0
22,-1.3065749044471886e-05,-0.011348078958690166,0.306659,-0.02200000174343586,0.002,0.0
23,-1.331111434410559e-05,-0.01165478490293026,0.319992,-0.023000001907348633,0.002,0.0
24,-1.3556478734244592e-05,-0.012881610542535782,0.333325,-0.024000000208616257,0.002,0.0
25,-1.3801844033878297e-05,-0.013801729306578636,0.346658,-0.02500000037252903,0.002,0.0
26,-1.4169891983328853e-05,-0.014721849001944065,0.359991,-0.026000000536441803,0.002,0.0
27,-1.4415256373467855e-05,-0.015948673710227013,0.373324,-0.027000000700354576,0.002,0.0
28,-1.466062167310156e-05,-0.015948673710227013,0.386657,-0.02800000086426735,0.002,0.0
29,-1.4844645193079486e-05,-0.016868792474269867,0.39999,-0.029000001028180122,0.002,0.0
30,-1.509001049271319e-05,-0.01809561811387539,0.413323,-0.030000001192092896,0.002,0.0
31,-1.539671757200267e-05,-0.018709031865000725,0.426656,-0.03100000135600567,0.002,0.0
32,-1.570342283230275e-05,-0.020242562517523766,0.439989,-0.03200000151991844,0.002,0.0
33,-1.5887446352280676e-05,-0.02116268128156662,0.453322,-0.032999999821186066,0.002,0.0
34,-1.5948788131936453e-05,-0.021776095032691956,0.466655,-0.03400000184774399,0.002,0.0
35,-1.6316835171892308e-05,-0.02269621379673481,0.479988,-0.03500000014901161,0.002,0.0
36,-1.650086051085964e-05,-0.023616332560777664,0.493321,-0.036000002175569534,0.002,0.0
37,-1.6746225810493343e-05,-0.024843158200383186,0.506654,-0.03700000047683716,0.002,0.0
38,-1.693024933047127e-05,-0.02576327696442604,0.519987,-0.03800000250339508,0.002,0.0
39,-1.7175614630104974e-05,-0.026683395728468895,0.53332,-0.039000000804662704,0.002,0.0
40,-1.73596381500829e-05,-0.02760351449251175,0.546653,-0.04000000283122063,0.002,0.0
41,-1.7605003449716605e-05,-0.028523633256554604,0.559986,-0.04100000113248825,0.002,0.0
42,-1.766634341038298e-05,-0.029750458896160126,0.573319,-0.04200000315904617,0.002,0.0
43,-1.797305048967246e-05,-0.03036387264728546,0.586652,-0.0430000014603138,0.002,0.0
44,-1.8157074009650387e-05,-0.0318974032998085,0.599985,-0.04400000348687172,0.002,0.0
45,-1.8218415789306164e-05,-0.03251081705093384,0.613318,-0.04500000178813934,0.002,0.0
46,-1.840243930928409e-05,-0.03343093395233154,0.626651,-0.046000003814697266,0.002,0.0
47,-1.8709146388573572e-05,-0.034351054579019547,0.639984,-0.04700000211596489,0.002,0.0
48,-1.8770486349239945e-05,-0.03527117520570755,0.653317,-0.04800000041723251,0.002,0.0
49,-1.8954509869217873e-05,-0.03649799898266792,0.66665,-0.049000002443790436,0.002,0.0
50,-1.9138535208185203e-05,-0.03711141273379326,0.679983,-0.05000000074505806,0.002,0.0
51,-1.9261216948507354e-05,-0.0386449433863163,0.693316,-0.05100000277161598,0.002,0.0
52,-1.9567924027796835e-05,-0.03895165026187897,0.706649,-0.052000001072883606,0.002,0.0
53,-1.9751947547774762e-05,-0.04048518091440201,0.719982,-0.05300000309944153,0.002,0.0
54,-1.9874629288096912e-05,-0.041098594665527344,0.733315,-0.05400000140070915,0.002,0.0
55,-1.9997312847408466e-05,-0.04201871156692505,0.746648,-0.055000003427267075,0.002,0.0
56,-2.0181336367386393e-05,-0.04324553906917572,0.759981,-0.0560000017285347,0.002,0.0
57,-2.0426701667020097e-05,-0.04447236284613609,0.773314,-0.05700000375509262,0.002,0.0
58,-2.0549383407342248e-05,-0.04508577659726143,0.786647,-0.058000002056360245,0.002,0.0
59,-2.0610725186998025e-05,-0.0463126003742218,0.79998,-0.05900000408291817,0.002,0.0
60,-2.0733406927320175e-05,-0.04753942787647247,0.813313,-0.06000000238418579,0.002,0.0
61,-2.0917430447298102e-05,-0.04845954477787018,0.826646,-0.06100000441074371,0.002,0.0
62,-2.097877222695388e-05,-0.049072958528995514,0.839979,-0.06200000271201134,0.002,0.0
63,-2.1224137526587583e-05,-0.05029978230595589,0.853312,-0.06300000101327896,0.002,0.0
64,-2.1224137526587583e-05,-0.05091319605708122,0.866645,-0.06400000303983688,0.002,0.0
65,-2.1346819266909733e-05,-0.05244672670960426,0.879978,-0.0650000050663948,0.002,0.0
66,-2.1469502826221287e-05,-0.05275343358516693,0.893311,-0.06599999964237213,0.002,0.0
67,-2.1469502826221287e-05,-0.0539802610874176,0.906644,-0.06700000166893005,0.002,0.0
68,-2.1469502826221287e-05,-0.055207084864377975,0.919977,-0.06800000369548798,0.002,0.0
69,-2.1592184566543438e-05,-0.05643391236662865,0.93331,-0.0690000057220459,0.002,0.0
70,-2.171486812585499e-05,-0.05735402926802635,0.946643,-0.07000000029802322,0.002,0.0
71,-2.1776208086521365e-05,-0.05796744301915169,0.959976,-0.07100000232458115,0.002,0.0
72,-2.183754986617714e-05,-0.05950097367167473,0.973309,-0.07200000435113907,0.002,0.0
73,-2.202157338615507e-05,-0.060114387422800064,0.986642,-0.07300000637769699,0.002,0.0
74,-2.189889164583292e-05,-0.06103450432419777,0.999975,-0.07400000095367432,0.002,0.0
75,-2.2082915165810846e-05,-0.06195462495088577,1.013308,-0.07500000298023224,0.002,0.0
76,-2.2082915165810846e-05,-0.06287474185228348,1.026641,-0.07600000500679016,0.002,0.0
77,-2.2144256945466623e-05,-0.06318145245313644,1.039974,-0.07700000703334808,0.002,0.0
78,-2.2144256945466623e-05,-0.06502168625593185,1.053307,-0.07800000160932541,0.002,0.0
79,-2.2205596906132996e-05,-0.0665552169084549,1.06664,-0.07900000363588333,0.002,0.0
80,-2.2266938685788773e-05,-0.0674753412604332,1.079973,-0.08000000566244125,0.002,0.0
81,-2.24509622057667e-05,-0.06808875501155853,1.093306,-0.08100000023841858,0.002,0.0
82,-2.2389622245100327e-05,-0.06900887191295624,1.106639,-0.0820000022649765,0.002,0.0
83,-2.2512303985422477e-05,-0.06992898881435394,1.119972,-0.08300000429153442,0.002,0.0
84,-2.24509622057667e-05,-0.07146251946687698,1.133305,-0.08400000631809235,0.002,0.0
85,-2.2573645765078254e-05,-0.07238264381885529,1.146638,-0.08500000089406967,0.002,0.0
86,-2.2634985725744627e-05,-0.07268934696912766,1.159971,-0.0860000029206276,0.002,0.0
87,-2.2696327505400404e-05,-0.0742228776216507,1.173304,-0.08700000494718552,0.002,0.0
88,-2.275766928505618e-05,-0.07483629137277603,1.186637,-0.08800000697374344,0.002,0.0
89,-2.2819011064711958e-05,-0.07575640827417374,1.19997,-0.08900000154972076,0.002,0.0
90,-2.288035102537833e-05,-0.07698323577642441,1.213303,-0.09000000357627869,0.002,0.0
91,-2.288035102537833e-05,-0.07821006327867508,1.226636,-0.09100000560283661,0.002,0.0
92,-2.294169280503411e-05,-0.07851676642894745,1.239969,-0.09200000762939453,0.002,0.0
93,-2.3064376364345662e-05,-0.08005029708147049,1.253302,-0.09300000220537186,0.002,0.0
94,-2.324839988432359e-05,-0.08127712458372116,1.266635,-0.09400000423192978,0.002,0.0
95,-2.3125716325012036e-05,-0.0818905383348465,1.279968,-0.0950000062584877,0.002,0.0
96,-2.3187058104667813e-05,-0.08342406898736954,1.293301,-0.09600000083446503,0.002,0.0
97,-2.3187058104667813e-05,-0.08403748273849487,1.306634,-0.09700000286102295,0.002,0.0
98,-2.3432423404301517e-05,-0.08495759963989258,1.319967,-0.09800000488758087,0.002,0.0
99,-2.3309739844989963e-05,-0.08587771654129028,1.3333,-0.0990000069141388,0.002,0.0
100,-2.3432423404301517e-05,-0.08741125464439392,1.346633,-0.10000000149011612,0.002,0.0
101,-2.3616446924279444e-05,-0.08771795779466629,1.359966,-0.10100000351667404,0.002,0.0
102,-2.3555105144623667e-05,-0.08925148844718933,1.373299,-0.10200000554323196,0.002,0.0
103,-2.3555105144623667e-05,-0.09017160534858704,1.386632,-0.10300000756978989,0.002,0.0
104,-2.3739128664601594e-05,-0.09078501909971237,1.399965,-0.10400000214576721,0.002,0.0
105,-2.380047044425737e-05,-0.09201184660196304,1.413298,-0.10500000417232513,0.002,0.0
106,-2.3861812223913148e-05,-0.09262526035308838,1.426631,-0.10600000619888306,0.002,0.0
107,-2.3861812223913148e-05,-0.09323867410421371,1.439964,-0.10700000822544098,0.002,0.0
108,-2.39844939642353e-05,-0.09446549415588379,1.453297,-0.1080000028014183,0.002,0.0
109,-2.39844939642353e-05,-0.09599903225898743,1.46663,-0.10900000482797623,0.002,0.0
110,-2.4168517484213226e-05,-0.0972258523106575,1.479963,-0.11000000685453415,0.002,0.0
111,-2.4229859263869002e-05,-0.09783926606178284,1.493296,-0.11100000888109207,0.002,0.0
112,-2.429120104352478e-05,-0.09906609356403351,1.506629,-0.1120000034570694,0.002,0.0
113,-2.429120104352478e-05,-0.10029292106628418,1.519962,-0.11300000548362732,0.002,0.0
114,-2.429120104352478e-05,-0.10090632736682892,1.533295,-0.11400000751018524,0.002,0.0
115,-2.4475224563502707e-05,-0.10182645171880722,1.546628,-0.11500000208616257,0.002,0.0
116,-2.4536566343158484e-05,-0.1030532717704773,1.559961,-0.11600000411272049,0.002,0.0
117,-2.4597906303824857e-05,-0.1039733961224556,1.573294,-0.11700000613927841,0.002,0.0
118,-2.472058986313641e-05,-0.10550692677497864,1.586627,-0.11800000816583633,0.002,0.0
119,-2.4781931642792188e-05,-0.10581362992525101,1.59996,-0.11900000274181366,0.002,0.0
120,-2.4904613383114338e-05,-0.10704045742750168,1.613293,-0.12000000476837158,0.002,0.0
121,-2.4904613383114338e-05,-0.10796057432889938,1.626626,-0.1210000067949295,0.002,0.0
122,-2.5027296942425892e-05,-0.10857398808002472,1.639959,-0.12200000882148743,0.002,0.0
123,-2.521132046240382e-05,-0.10980081558227539,1.653292,-0.12300000339746475,0.002,0.0
124,-2.521132046240382e-05,-0.11102764308452606,1.666625,-0.12400000542402267,0.002,0.0
125,-2.5272660423070192e-05,-0.11194775998592377,1.679958,-0.125,0.002,0.0
126,-2.533400220272597e-05,-0.11317458748817444,1.693291,-0.12600000202655792,0.002,0.0
127,-2.5456685762037523e-05,-0.11378799378871918,1.706624,-0.12700000405311584,0.002,0.0
128,-2.5395343982381746e-05,-0.11501482129096985,1.719957,-0.12800000607967377,0.002,0.0
129,-2.564070928201545e-05,-0.11562823504209518,1.73329,-0.1290000081062317,0.002,0.0
130,-2.564070928201545e-05,-0.11685506254434586,1.746623,-0.1300000101327896,0.002,0.0
131,-2.5824732801993378e-05,-0.11746847629547119,1.759956,-0.13100001215934753,0.002,0.0
132,-2.5947414542315528e-05,-0.11900200694799423,1.773289,-0.13199999928474426,0.002,0.0
133,-2.6008756321971305e-05,-0.11992212384939194,1.786622,-0.13300000131130219,0.002,0.0
134,-2.6008756321971305e-05,-0.12114895135164261,1.799955,-0.1340000033378601,0.002,0.0
135,-2.6131438062293455e-05,-0.12176236510276794,1.813288,-0.13500000536441803,0.002,0.0
136,-2.6192779841949232e-05,-0.12298918515443802,1.826621,-0.13600000739097595,0.002,0.0
137,-2.625412162160501e-05,-0.12360259890556335,1.839954,-0.13700000941753387,0.002,0.0
138,-2.637680336192716e-05,-0.12482942640781403,1.853287,-0.1380000114440918,0.002,0.0
139,-2.6438145141582936e-05,-0.12574954330921173,1.86662,-0.13900001347064972,0.002,0.0
140,-2.6622168661560863e-05,-0.1269763708114624,1.879953,-0.14000000059604645,0.002,0.0
141,-2.6622168661560863e-05,-0.12758977711200714,1.893286,-0.14100000262260437,0.002,0.0
142,-2.6744852220872417e-05,-0.12943002581596375,1.906619,-0.1420000046491623,0.002,0.0
143,-2.6867533961194567e-05,-0.13004343211650848,1.919952,-0.14300000667572021,0.002,0.0
144,-2.6928875740850344e-05,-0.1309635490179062,1.933285,-0.14400000870227814,0.002,0.0
145,-2.7051557481172495e-05,-0.1318836659193039,1.946618,-0.14500001072883606,0.002,0.0
146,-2.711289926082827e-05,-0.13249708712100983,1.959951,-0.14600001275539398,0.002,0.0
147,-2.717424104048405e-05,-0.13403061032295227,1.973284,-0.1469999998807907,0.002,0.0
148,-2.72969227808062e-05,-0.1346440315246582,1.986617,-0.14800000190734863,0.002,0.0
149,-2.7358264560461976e-05,-0.1355641484260559,1.99995,-0.14900000393390656,0.002,0.0
150,-2.7419606340117753e-05,-0.13679097592830658,2.013283,-0.15000000596046448,0.002,0.0
151,-2.760362986009568e-05,-0.13771109282970428,2.026616,-0.1510000079870224,0.002,0.0
152,-2.772631160041783e-05,-0.138631209731102,2.039949,-0.15200001001358032,0.002,0.0
153,-2.772631160041783e-05,-0.1395513266324997,2.053282,-0.15300001204013824,0.002,0.0
154,-2.7848995159729384e-05,-0.1413915604352951,2.066615,-0.15400001406669617,0.002,0.0
155,-2.7910335120395757e-05,-0.14169827103614807,2.079948,-0.1550000011920929,0.002,0.0
156,-2.8094358640373684e-05,-0.14292509853839874,2.093281,-0.15600000321865082,0.002,0.0
157,-2.815570042002946e-05,-0.14353850483894348,2.106614,-0.15700000524520874,0.002,0.0
158,-2.8278383979341015e-05,-0.14415192604064941,2.119947,-0.15800000727176666,0.002,0.0
159,-2.833972394000739e-05,-0.14599215984344482,2.13328,-0.15900000929832458,0.002,0.0
160,-2.8401065719663166e-05,-0.14660558104515076,2.146613,-0.1600000113248825,0.002,0.0
161,-2.864643101929687e-05,-0.14752569794654846,2.159946,-0.16100001335144043,0.002,0.0
162,-2.8707772798952647e-05,-0.14875252544879913,2.173279,-0.16200000047683716,0.002,0.0
163,-2.8707772798952647e-05,-0.15028604865074158,2.186612,-0.16300000250339508,0.002,0.0
164,-2.8830454539274797e-05,-0.15059275925159454,2.199945,-0.164000004529953,0.002,0.0
165,-2.90758198389085e-05,-0.15151287615299225,2.213278,-0.16500000655651093,0.002,0.0
166,-2.9014478059252724e-05,-0.1530464142560959,2.226611,-0.16600000858306885,0.002,0.0
167,-2.919850157923065e-05,-0.15427322685718536,2.239944,-0.16700001060962677,0.002,0.0
168,-2.9259843358886428e-05,-0.15457993745803833,2.253277,-0.1680000126361847,0.002,0.0
169,-2.9321185138542205e-05,-0.15642017126083374,2.26661,-0.16900001466274261,0.002,0.0
170,-2.9443866878864355e-05,-0.1567268818616867,2.279943,-0.17000000178813934,0.002,0.0
171,-2.956655043817591e-05,-0.15826041996479034,2.293276,-0.17100000381469727,0.002,0.0
172,-2.9750573958153836e-05,-0.15887382626533508,2.306609,-0.1720000058412552,0.002,0.0
173,-2.9750573958153836e-05,-0.15948724746704102,2.319942,-0.1730000078678131,0.002,0.0
174,-2.999593925778754e-05,-0.16102077066898346,2.333275,-0.17400000989437103,0.002,0.0
175,-3.0057279218453914e-05,-0.16194088757038116,2.346608,-0.17500001192092896,0.002,0.0
176,-3.0057279218453914e-05,-0.1625543087720871,2.359941,-0.17600001394748688,0.002,0.0
177,-3.0179962777765468e-05,-0.16378113627433777,2.373274,-0.1770000010728836,0.002,0.0
178,-3.0302644518087618e-05,-0.16500794887542725,2.386607,-0.17800000309944153,0.002,0.0
179,-3.0425328077399172e-05,-0.16562137007713318,2.39994,-0.17900000512599945,0.002,0.0
180,-3.054800981772132e-05,-0.16684819757938385,2.413273,-0.18000000715255737,0.002,0.0
181,-3.0670693377032876e-05,-0.1674616038799286,2.426606,-0.1810000091791153,0.002,0.0
182,-3.079337693634443e-05,-0.16868843138217926,2.439939,-0.18200001120567322,0.002,0.0
183,-3.079337693634443e-05,-0.16991525888442993,2.453272,-0.18300001323223114,0.002,0.0
184,-3.097740045632236e-05,-0.17083537578582764,2.466605,-0.18400001525878906,0.002,0.0
185,-3.103874041698873e-05,-0.17175549268722534,2.479938,-0.1850000023841858,0.002,0.0
186,-3.1161423976300284e-05,-0.172982320189476,2.493271,-0.1860000044107437,0.002,0.0
187,-3.122276393696666e-05,-0.17359572649002075,2.506604,-0.18700000643730164,0.002,0.0
188,-3.1406787456944585e-05,-0.1751292645931244,2.519937,-0.18800000846385956,0.002,0.0
189,-3.146812741761096e-05,-0.1760493814945221,2.53327,-0.18900001049041748,0.002,0.0
190,-3.152947101625614e-05,-0.1769694983959198,2.546603,-0.1900000125169754,0.002,0.0
191,-3.1713494536234066e-05,-0.17819632589817047,2.559936,-0.19100001454353333,0.002,0.0
192,-3.1713494536234066e-05,-0.1788097470998764,2.573269,-0.19200000166893005,0.002,0.0
193,-3.177483449690044e-05,-0.1797298640012741,2.586602,-0.19300000369548798,0.002,0.0
194,-3.202020161552355e-05,-0.18095669150352478,2.599935,-0.1940000057220459,0.002,0.0
195,-3.1958858016878366e-05,-0.18187680840492249,2.613268,-0.19500000774860382,0.002,0.0
196,-3.2142881536856294e-05,-0.1827969253063202,2.626601,-0.19600000977516174,0.002,0.0
197,-3.226556509616785e-05,-0.1837170422077179,2.639934,-0.19700001180171967,0.002,0.0
198,-3.23882486554794e-05,-0.18494386970996857,2.653267,-0.1980000138282776,0.002,0.0
199,-3.2510932214790955e-05,-0.18586398661136627,2.6666,-0.1990000158548355,0.002,0.0
200,-3.257227217545733e-05,-0.186477392911911,2.679933,-0.20000000298023224,0.002,0.0
201,-3.2510932214790955e-05,-0.18801093101501465,2.693266,-0.20100000500679016,0.002,0.0
202,-3.269495573476888e-05,-0.1886243373155594,2.706599,-0.20200000703334808,0.002,0.0
203,-3.2756295695435256e-05,-0.19015787541866302,2.719932,-0.203000009059906,0.002,0.0
204,-3.3001659176079556e-05,-0.19077128171920776,2.733265,-0.20400001108646393,0.002,0.0
205,-3.294031921541318e-05,-0.19169141352176666,2.746598,-0.20500001311302185,0.002,0.0
206,-3.312434273539111e-05,-0.1932249367237091,2.759931,-0.20600001513957977,0.002,0.0
207,-3.318568633403629e-05,-0.19383835792541504,2.773264,-0.2070000171661377,0.002,0.0
208,-3.3247026294702664e-05,-0.19445176422595978,2.786597,-0.20800000429153442,0.002,0.0
209,-3.330836625536904e-05,-0.19567859172821045,2.79993,-0.20900000631809235,0.002,0.0
210,-3.336970985401422e-05,-0.19690541923046112,2.813263,-0.21000000834465027,0.002,0.0
211,-3.361507333465852e-05,-0.19751882553100586,2.826596,-0.2110000103712082,0.002,0.0
212,-3.3553733373992145e-05,-0.19874565303325653,2.839929,-0.2120000123977661,0.002,0.0
213,-3.373775689397007e-05,-0.1999724805355072,2.853262,-0.21300001442432404,0.002,0.0
214,-3.373775689397007e-05,-0.2008925974369049,2.866595,-0.21400001645088196,0.002,0.0
215,-3.373775689397007e-05,-0.2018127143383026,2.879928,-0.2150000035762787,0.002,0.0
216,-3.3921780413948e-05,-0.20303954184055328,2.893261,-0.2160000056028366,0.002,0.0
217,-3.410580393392593e-05,-0.203959658741951,2.906594,-0.21700000762939453,0.002,0.0
218,-3.41671438945923e-05,-0.2057998925447464,2.93326,-0.21900001168251038,0.002,0.0
219,-3.4289827453903854e-05,-0.20641331374645233,2.946593,-0.2200000137090683,0.002,0.0
220,-3.435116741457023e-05,-0.20794683694839478,2.959926,-0.22100001573562622,0.002,0.0
221,-3.441251101321541e-05,-0.20886696875095367,2.973259,-0.22200001776218414,0.002,0.0
222,-3.4535190934548154e-05,-0.20978708565235138,2.986592,-0.22300000488758087,0.002,0.0
223,-3.465787449385971e-05,-0.21070720255374908,2.999925,-0.2240000069141388,0.002,0.0
224,-3.471921809250489e-05,-0.2116273194551468,3.013258,-0.22500000894069672,0.002,0.0
225,-3.4841898013837636e-05,-0.21224072575569153,3.026591,-0.22600001096725464,0.002,0.0
226,-3.4903241612482816e-05,-0.21316085755825043,3.039924,-0.22700001299381256,0.002,0.0
